**** COMMENT ****

**** INPUTS ****
kVp [kV] hvMIN [keV] Dhv [keV]
20  2  1
Angle [deg.]
45
t_AIR t_BE t_AL t_CU t_SN t_W t_Ta t_Wa [mm]
1000  0  0  0  0  0  0  0
Nf P
0.68  0.33
****CALCULATED OUTPUTS ****
Brem[uGy/mAs@1m] Char[uGy/mAs@1m]
330.451  0
HVL1[cm AL] HVL2[cm AL] HVL1[cmCu] HVL2[cmCu] MeanE[keV] EffEAl[keV] EffECu[keV]
0.0072427  0.0110188  0.0006313  0.0008018  11.56918  9.026778  5.911692
**** CALCULATED SPECTRUM ****
Energy[keV]  N[keV cm^2 mAs]^-1 @ 1 meter
2  8.590568e-21
3  0.1164369
4  2667.568
5  206669.7
6  1.291054e+6
7  2.956982e+6
8  4.348025e+6
9  5.080363e+6
10  5.253763e+6
11  4.839297e+6
12  4.400955e+6
13  3.920746e+6
14  3.434289e+6
15  2.919968e+6
16  2.403604e+6
17  1.886794e+6
18  1.371486e+6
19  815570.5
20  0
